4	383.333333
4.02	393.333333
4.04	353.333333
4.06	388.333333
4.08	373.333333
4.1	350
4.12	376.666667
4.14	348.333333
4.16	330
4.18	348.333333
4.2	395
4.22	375
4.24	346.666667
4.26	331.666667
4.28	365
4.3	405
4.32	358.333333
4.34	336.666667
4.36	415
4.38	368.333333
4.4	321.666667
4.42	373.333333
4.44	333.333333
4.46	300
4.48	345
4.5	330
4.52	348.333333
4.54	365
4.56	310
4.58	330
4.6	286.666667
4.62	293.333333
4.64	341.666667
4.66	336.666667
4.68	331.666667
4.7	350
4.72	320
4.74	393.333333
4.76	300
4.78	345
4.8	310
4.82	345
4.84	338.333333
4.86	328.333333
4.88	330
4.9	336.666667
4.92	351.666667
4.94	326.666667
4.96	370
4.98	320
5	301.666667
5.02	291.666667
5.04	293.333333
5.06	328.333333
5.08	293.333333
5.1	326.666667
5.12	298.333333
5.14	295
5.16	286.666667
5.18	293.333333
5.2	281.666667
5.22	263.333333
5.24	241.666667
5.26	296.666667
5.28	280
5.3	305
5.32	291.666667
5.34	290
5.36	280
5.38	281.666667
5.4	285
5.42	286.666667
5.44	263.333333
5.46	243.333333
5.48	261.666667
5.5	278.333333
5.52	303.333333
5.54	291.666667
5.56	260
5.58	273.333333
5.6	290
5.62	325
5.64	275
5.66	280
5.68	278.333333
5.7	291.666667
5.72	315
5.74	311.666667
5.76	246.666667
5.78	326.666667
5.8	293.333333
5.82	285
5.84	288.333333
5.86	293.333333
5.88	321.666667
5.9	310
5.92	308.333333
5.94	301.666667
5.96	290
5.98	255
6	251.666667
6.02	248.333333
6.04	230
6.06	256.666667
6.08	231.666667
6.1	253.333333
6.12	240
6.14	238.333333
6.16	241.666667
6.18	261.666667
6.2	255
6.22	261.666667
6.24	278.333333
6.26	211.666667
6.28	263.333333
6.3	238.333333
6.32	236.666667
6.34	218.333333
6.36	265
6.38	225
6.4	243.333333
6.42	246.666667
6.44	233.333333
6.46	238.333333
6.48	250
6.5	241.666667
6.52	255
6.54	235
6.56	213.333333
6.58	231.666667
6.6	215
6.62	236.666667
6.64	203.333333
6.66	223.333333
6.68	241.666667
6.7	223.333333
6.72	223.333333
6.74	211.666667
6.76	230
6.78	205
6.8	236.666667
6.82	223.333333
6.84	233.333333
6.86	208.333333
6.88	216.666667
6.9	190
6.92	216.666667
6.94	191.666667
6.96	225
6.98	216.666667
7	223.333333
7.02	231.666667
7.04	203.333333
7.06	213.333333
7.08	245
7.1	221.666667
7.12	203.333333
7.14	201.666667
7.16	226.666667
7.18	210
7.2	195
7.22	221.666667
7.24	203.333333
7.26	201.666667
7.28	191.666667
7.3	201.666667
7.32	211.666667
7.34	218.333333
7.36	216.666667
7.38	211.666667
7.4	181.666667
7.42	163.333333
7.44	190
7.46	210
7.48	223.333333
7.5	215
7.52	245
7.54	196.666667
7.56	206.666667
7.58	241.666667
7.6	231.666667
7.62	183.333333
7.64	183.333333
7.66	213.333333
7.68	188.333333
7.7	153.333333
7.72	201.666667
7.74	235
7.76	178.333333
7.78	195
7.8	211.666667
7.82	193.333333
7.84	181.666667
7.86	191.666667
7.88	176.666667
7.9	193.333333
7.92	180
7.94	213.333333
7.96	186.666667
7.98	191.666667
8	196.666667
8.02	208.333333
8.04	196.666667
8.06	225
8.08	183.333333
8.1	188.333333
8.12	228.333333
8.14	193.333333
8.16	200
8.18	171.666667
8.2	188.333333
8.22	175
8.24	216.666667
8.26	173.333333
8.28	148.333333
8.3	195
8.32	228.333333
8.34	195
8.36	176.666667
8.38	158.333333
8.4	171.666667
8.42	180
8.44	221.666667
8.46	195
8.48	200
8.5	161.666667
8.52	210
8.54	190
8.56	171.666667
8.58	203.333333
8.6	191.666667
8.62	175
8.64	185
8.66	150
8.68	213.333333
8.7	155
8.72	176.666667
8.74	170
8.76	181.666667
8.78	163.333333
8.8	180
8.82	163.333333
8.84	170
8.86	185
8.88	186.666667
8.9	175
8.92	191.666667
8.94	180
8.96	135
8.98	170
9	205
9.02	190
9.04	165
9.06	156.666667
9.08	153.333333
9.1	190
9.12	161.666667
9.14	203.333333
9.16	173.333333
9.18	168.333333
9.2	161.666667
9.22	161.666667
9.24	148.333333
9.26	130
9.28	175
9.3	151.666667
9.32	176.666667
9.34	158.333333
9.36	145
9.38	143.333333
9.4	153.333333
9.42	155
9.44	136.666667
9.46	166.666667
9.48	168.333333
9.5	165
9.52	158.333333
9.54	163.333333
9.56	180
9.58	150
9.6	136.666667
9.62	210
9.64	158.333333
9.66	170
9.68	165
9.7	173.333333
9.72	141.666667
9.74	163.333333
9.76	176.666667
9.78	141.666667
9.8	161.666667
9.82	120
9.84	181.666667
9.86	161.666667
9.88	165
9.9	146.666667
9.92	123.333333
9.94	163.333333
9.96	150
9.98	160
10	176.666667
10.02	146.666667
10.04	170
10.06	148.333333
10.08	156.666667
10.1	168.333333
10.12	133.333333
10.14	135
10.16	158.333333
10.18	165
10.2	165
10.22	155
10.24	171.666667
10.26	163.333333
10.28	136.666667
10.3	126.666667
10.32	138.333333
10.34	146.666667
10.36	178.333333
10.38	156.666667
10.4	141.666667
10.42	148.333333
10.44	143.333333
10.46	120
10.48	171.666667
10.5	158.333333
10.52	165
10.54	156.666667
10.56	156.666667
10.58	155
10.6	136.666667
10.62	133.333333
10.64	160
10.66	141.666667
10.68	140
10.7	161.666667
10.72	136.666667
10.74	140
10.76	116.666667
10.78	158.333333
10.8	130
10.82	133.333333
10.84	136.666667
10.86	131.666667
10.88	133.333333
10.9	120
10.92	141.666667
10.94	133.333333
10.96	135
10.98	130
11	128.333333
11.02	116.666667
11.04	126.666667
11.06	153.333333
11.08	141.666667
11.1	146.666667
11.12	150
11.14	115
11.16	150
11.18	126.666667
11.2	146.666667
11.22	143.333333
11.24	145
11.26	150
11.28	126.666667
11.3	143.333333
11.32	145
11.34	133.333333
11.36	148.333333
11.38	130
11.4	160
11.42	160
11.44	128.333333
11.46	126.666667
11.48	146.666667
11.5	103.333333
11.52	170
11.54	141.666667
11.56	110
11.58	125
11.6	140
11.62	131.666667
11.64	131.666667
11.66	131.666667
11.68	125
11.7	123.333333
11.72	106.666667
11.74	111.666667
11.76	130
11.78	101.666667
11.8	135
11.82	135
11.84	111.666667
11.86	131.666667
11.88	140
11.9	121.666667
11.92	116.666667
11.94	145
11.96	125
11.98	138.333333
12	136.666667
12.02	145
12.04	138.333333
12.06	116.666667
12.08	113.333333
12.1	140
12.12	125
12.14	145
12.16	131.666667
12.18	140
12.2	148.333333
12.22	120
12.24	121.666667
12.26	115
12.28	121.666667
12.3	145
12.32	138.333333
12.34	106.666667
12.36	125
12.38	136.666667
12.4	126.666667
12.42	95
12.44	128.333333
12.46	145
12.48	120
12.5	130
12.52	128.333333
12.54	148.333333
12.56	116.666667
12.58	156.666667
12.6	118.333333
12.62	116.666667
12.64	120
12.66	118.333333
12.68	126.666667
12.7	118.333333
12.72	143.333333
12.74	143.333333
12.76	133.333333
12.78	150
12.8	136.666667
12.82	145
12.84	146.666667
12.86	115
12.88	150
12.9	135
12.92	130
12.94	145
12.96	155
12.98	135
13	170
13.02	143.333333
13.04	166.666667
13.06	193.333333
13.08	206.666667
13.1	206.666667
13.12	216.666667
13.14	216.666667
13.16	261.666667
13.18	231.666667
13.2	253.333333
13.22	290
13.24	281.666667
13.26	286.666667
13.28	275
13.3	285
13.32	246.666667
13.34	245
13.36	220
13.38	245
13.4	200
13.42	205
13.44	165
13.46	206.666667
13.48	165
13.5	166.666667
13.52	150
13.54	131.666667
13.56	153.333333
13.58	138.333333
13.6	118.333333
13.62	151.666667
13.64	128.333333
13.66	155
13.68	123.333333
13.7	128.333333
13.72	153.333333
13.74	128.333333
13.76	128.333333
13.78	113.333333
13.8	120
13.82	135
13.84	163.333333
13.86	141.666667
13.88	100
13.9	110
13.92	118.333333
13.94	116.666667
13.96	141.666667
13.98	113.333333
14	123.333333
14.02	126.666667
14.04	116.666667
14.06	103.333333
14.08	105
14.1	118.333333
14.12	123.333333
14.14	83.333333
14.16	96.666667
14.18	95
14.2	100
14.22	118.333333
14.24	135
14.26	101.666667
14.28	80
14.3	95
14.32	111.666667
14.34	108.333333
14.36	96.666667
14.38	103.333333
14.4	131.666667
14.42	91.666667
14.44	111.666667
14.46	91.666667
14.48	98.333333
14.5	86.666667
14.52	110
14.54	100
14.56	81.666667
14.58	115
14.6	135
14.62	88.333333
14.64	101.666667
14.66	110
14.68	96.666667
14.7	126.666667
14.72	101.666667
14.74	113.333333
14.76	108.333333
14.78	85
14.8	106.666667
14.82	125
14.84	110
14.86	95
14.88	116.666667
14.9	88.333333
14.92	103.333333
14.94	116.666667
14.96	106.666667
14.98	85
15	101.666667
15.02	108.333333
15.04	113.333333
15.06	91.666667
15.08	105
15.1	130
15.12	81.666667
15.14	95
15.16	105
15.18	105
15.2	101.666667
15.22	91.666667
15.24	110
15.26	83.333333
15.28	115
15.3	78.333333
15.32	93.333333
15.34	83.333333
15.36	103.333333
15.38	90
15.4	96.666667
15.42	113.333333
15.44	98.333333
15.46	101.666667
15.48	81.666667
15.5	96.666667
15.52	110
15.54	83.333333
15.56	100
15.58	93.333333
15.6	95
15.62	111.666667
15.64	95
15.66	118.333333
15.68	98.333333
15.7	95
15.72	86.666667
15.74	80
15.76	80
15.78	83.333333
15.8	71.666667
15.82	105
15.84	88.333333
15.86	78.333333
15.88	91.666667
15.9	83.333333
15.92	83.333333
15.94	76.666667
15.96	78.333333
15.98	123.333333
16	83.333333
16.02	91.666667
16.04	90
16.06	88.333333
16.08	100
16.1	83.333333
16.12	101.666667
16.14	121.666667
16.16	90
16.18	110
16.2	85
16.22	78.333333
16.24	90
16.26	115
16.28	93.333333
16.3	108.333333
16.32	111.666667
16.34	98.333333
16.36	90
16.38	111.666667
16.4	81.666667
16.42	110
16.44	71.666667
16.46	91.666667
16.48	83.333333
16.5	78.333333
16.52	78.333333
16.54	106.666667
16.56	98.333333
16.58	93.333333
16.6	91.666667
16.62	96.666667
16.64	83.333333
16.66	93.333333
16.68	80
16.7	78.333333
16.72	105
16.74	103.333333
16.76	85
16.78	86.666667
16.8	85
16.82	85
16.84	78.333333
16.86	85
16.88	80
16.9	80
16.92	85
16.94	80
16.96	85
16.98	93.333333
17	100
17.02	100
17.04	78.333333
17.06	81.666667
17.08	95
17.1	76.666667
17.12	91.666667
17.14	71.666667
17.16	88.333333
17.18	85
17.2	73.333333
17.22	83.333333
17.24	85
17.26	83.333333
17.28	106.666667
17.3	83.333333
17.32	81.666667
17.34	68.333333
17.36	71.666667
17.38	96.666667
17.4	98.333333
17.42	83.333333
17.44	98.333333
17.46	86.666667
17.48	86.666667
17.5	90
17.52	80
17.54	81.666667
17.56	61.666667
17.58	93.333333
17.6	121.666667
17.62	78.333333
17.64	91.666667
17.66	83.333333
17.68	83.333333
17.7	65
17.72	91.666667
17.74	86.666667
17.76	81.666667
17.78	66.666667
17.8	75
17.82	65
17.84	95
17.86	95
17.88	81.666667
17.9	65
17.92	78.333333
17.94	73.333333
17.96	85
17.98	93.333333
18	91.666667
18.02	113.333333
18.04	70
18.06	66.666667
18.08	90
18.1	81.666667
18.12	56.666667
18.14	66.666667
18.16	81.666667
18.18	76.666667
18.2	83.333333
18.22	103.333333
18.24	76.666667
18.26	95
18.28	70
18.3	76.666667
18.32	78.333333
18.34	80
18.36	86.666667
18.38	71.666667
18.4	96.666667
18.42	90
18.44	81.666667
18.46	78.333333
18.48	58.333333
18.5	63.333333
18.52	75
18.54	76.666667
18.56	71.666667
18.58	88.333333
18.6	73.333333
18.62	76.666667
18.64	75
18.66	90
18.68	95
18.7	83.333333
18.72	58.333333
18.74	91.666667
18.76	81.666667
18.78	88.333333
18.8	88.333333
18.82	70
18.84	65
18.86	66.666667
18.88	88.333333
18.9	68.333333
18.92	60
18.94	65
18.96	85
18.98	75
19	90
19.02	90
19.04	81.666667
19.06	88.333333
19.08	75
19.1	73.333333
19.12	90
19.14	66.666667
19.16	85
19.18	78.333333
19.2	73.333333
19.22	90
19.24	85
19.26	83.333333
19.28	75
19.3	68.333333
19.32	80
19.34	73.333333
19.36	68.333333
19.38	95
19.4	81.666667
19.42	71.666667
19.44	90
19.46	75
19.48	70
19.5	88.333333
19.52	80
19.54	73.333333
19.56	96.666667
19.58	61.666667
19.6	90
19.62	60
19.64	75
19.66	71.666667
19.68	78.333333
19.7	88.333333
19.72	76.666667
19.74	86.666667
19.76	68.333333
19.78	66.666667
19.8	66.666667
19.82	90
19.84	50
19.86	88.333333
19.88	75
19.9	83.333333
19.92	86.666667
19.94	68.333333
19.96	63.333333
19.98	81.666667
20	100
20.02	63.333333
20.04	71.666667
20.06	83.333333
20.08	75
20.1	90
20.12	63.333333
20.14	55
20.16	68.333333
20.18	100
20.2	78.333333
20.22	73.333333
20.24	81.666667
20.26	90
20.28	58.333333
20.3	80
20.32	68.333333
20.34	63.333333
20.36	65
20.38	78.333333
20.4	68.333333
20.42	70
20.44	71.666667
20.46	63.333333
20.48	75
20.5	71.666667
20.52	61.666667
20.54	75
20.56	63.333333
20.58	60
20.6	80
20.62	71.666667
20.64	73.333333
20.66	58.333333
20.68	63.333333
20.7	75
20.72	70
20.74	71.666667
20.76	76.666667
20.78	63.333333
20.8	55
20.82	60
20.84	68.333333
20.86	73.333333
20.88	73.333333
20.9	51.666667
20.92	75
20.94	61.666667
20.96	78.333333
20.98	68.333333
21	85
21.02	75
21.04	73.333333
21.06	61.666667
21.08	63.333333
21.1	66.666667
21.12	63.333333
21.14	55
21.16	65
21.18	66.666667
21.2	53.333333
21.22	95
21.24	58.333333
21.26	83.333333
21.28	86.666667
21.3	85
21.32	55
21.34	65
21.36	61.666667
21.38	71.666667
21.4	55
21.42	68.333333
21.44	86.666667
21.46	76.666667
21.48	78.333333
21.5	70
21.52	60
21.54	50
21.56	68.333333
21.58	58.333333
21.6	76.666667
21.62	50
21.64	56.666667
21.66	61.666667
21.68	73.333333
21.7	48.333333
21.72	71.666667
21.74	51.666667
21.76	65
21.78	65
21.8	73.333333
21.82	75
21.84	65
21.86	60
21.88	85
21.9	88.333333
21.92	60
21.94	56.666667
21.96	70
21.98	85
22	66.666667
22.02	78.333333
22.04	95
22.06	58.333333
22.08	68.333333
22.1	63.333333
22.12	55
22.14	63.333333
22.16	55
22.18	38.333333
22.2	68.333333
22.22	75
22.24	76.666667
22.26	60
22.28	71.666667
22.3	71.666667
22.32	70
22.34	63.333333
22.36	61.666667
22.38	56.666667
22.4	61.666667
22.42	68.333333
22.44	56.666667
22.46	73.333333
22.48	80
22.5	65
22.52	55
22.54	46.666667
22.56	65
22.58	46.666667
22.6	55
22.62	68.333333
22.64	68.333333
22.66	73.333333
22.68	71.666667
22.7	53.333333
22.72	58.333333
22.74	76.666667
22.76	75
22.78	70
22.8	73.333333
22.82	80
22.84	61.666667
22.86	66.666667
22.88	73.333333
22.9	66.666667
22.92	78.333333
22.94	66.666667
22.96	78.333333
22.98	73.333333
23	71.666667
23.02	81.666667
23.04	70
23.06	65
23.08	65
23.1	71.666667
23.12	51.666667
23.14	76.666667
23.16	58.333333
23.18	80
23.2	71.666667
23.22	66.666667
23.24	65
23.26	65
23.28	68.333333
23.3	71.666667
23.32	76.666667
23.34	61.666667
23.36	75
23.38	60
23.4	60
23.42	61.666667
23.44	66.666667
23.46	66.666667
23.48	86.666667
23.5	58.333333
23.52	63.333333
23.54	58.333333
23.56	38.333333
23.58	53.333333
23.6	60
23.62	61.666667
23.64	58.333333
23.66	58.333333
23.68	56.666667
23.7	63.333333
23.72	68.333333
23.74	65
23.76	55
23.78	76.666667
23.8	60
23.82	53.333333
23.84	53.333333
23.86	78.333333
23.88	58.333333
23.9	48.333333
23.92	58.333333
23.94	55
23.96	53.333333
23.98	63.333333
24	65
24.02	38.333333
24.04	60
24.06	61.666667
24.08	60
24.1	66.666667
24.12	66.666667
24.14	50
24.16	60
24.18	70
24.2	81.666667
24.22	48.333333
24.24	66.666667
24.26	58.333333
24.28	51.666667
24.3	70
24.32	61.666667
24.34	58.333333
24.36	46.666667
24.38	75
24.4	58.333333
24.42	61.666667
24.44	56.666667
24.46	48.333333
24.48	45
24.5	66.666667
24.52	56.666667
24.54	61.666667
24.56	50
24.58	53.333333
24.6	61.666667
24.62	63.333333
24.64	58.333333
24.66	75
24.68	63.333333
24.7	61.666667
24.72	51.666667
24.74	48.333333
24.76	58.333333
24.78	48.333333
24.8	63.333333
24.82	53.333333
24.84	58.333333
24.86	80
24.88	78.333333
24.9	70
24.92	65
24.94	58.333333
24.96	63.333333
24.98	56.666667
25	55
25.02	61.666667
25.04	51.666667
25.06	61.666667
25.08	60
25.1	36.666667
25.12	60
25.14	55
25.16	46.666667
25.18	58.333333
25.2	61.666667
25.22	46.666667
25.24	85
25.26	68.333333
25.28	65
25.3	80
25.32	56.666667
25.34	58.333333
25.36	63.333333
25.38	60
25.4	50
25.42	66.666667
25.44	58.333333
25.46	55
25.48	63.333333
25.5	48.333333
25.52	78.333333
25.54	61.666667
25.56	68.333333
25.58	65
25.6	51.666667
25.62	63.333333
25.64	73.333333
25.66	53.333333
25.68	63.333333
25.7	43.333333
25.72	93.333333
25.74	61.666667
25.76	75
25.78	50
25.8	53.333333
25.82	76.666667
25.84	61.666667
25.86	76.666667
25.88	53.333333
25.9	60
25.92	38.333333
25.94	56.666667
25.96	60
25.98	71.666667
26	58.333333
26.02	71.666667
26.04	65
26.06	71.666667
26.08	46.666667
26.1	68.333333
26.12	70
26.14	75
26.16	60
26.18	71.666667
26.2	78.333333
26.22	86.666667
26.24	81.666667
26.26	71.666667
26.28	85
26.3	91.666667
26.32	118.333333
26.34	151.666667
26.36	113.333333
26.38	155
26.4	176.666667
26.42	206.666667
26.44	251.666667
26.46	268.333333
26.48	365
26.5	403.333333
26.52	460
26.54	506.666667
26.56	760
26.58	836.666667
26.6	996.666667
26.62	1135
26.64	1403.333333
26.66	1493.333333
26.68	1796.666667
26.7	1945
26.72	2151.666667
26.74	2135
26.76	2258.333333
26.78	2303.333333
26.8	2161.666667
26.82	1960
26.84	1865
26.86	1758.333333
26.88	1478.333333
26.9	1390
26.92	1176.666667
26.94	1113.333333
26.96	865
26.98	745
27	548.333333
27.02	443.333333
27.04	351.666667
27.06	280
27.08	205
27.1	138.333333
27.12	126.666667
27.14	125
27.16	68.333333
27.18	65
27.2	88.333333
27.22	71.666667
27.24	58.333333
27.26	71.666667
27.28	86.666667
27.3	95
27.32	58.333333
27.34	83.333333
27.36	61.666667
27.38	68.333333
27.4	80
27.42	75
27.44	55
27.46	66.666667
27.48	43.333333
27.5	56.666667
27.52	65
27.54	55
27.56	53.333333
27.58	50
27.6	60
27.62	65
27.64	81.666667
27.66	53.333333
27.68	51.666667
27.7	56.666667
27.72	45
27.74	53.333333
27.76	68.333333
27.78	58.333333
27.8	51.666667
27.82	65
27.84	61.666667
27.86	71.666667
27.88	50
27.9	61.666667
27.92	61.666667
27.94	71.666667
27.96	43.333333
27.98	75
28	46.666667
28.02	58.333333
28.04	61.666667
28.06	51.666667
28.08	63.333333
28.1	70
28.12	63.333333
28.14	55
28.16	60
28.18	65
28.2	58.333333
28.22	46.666667
28.24	41.666667
28.26	46.666667
28.28	51.666667
28.3	53.333333
28.32	68.333333
28.34	60
28.36	65
28.38	61.666667
28.4	53.333333
28.42	73.333333
28.44	60
28.46	70
28.48	88.333333
28.5	60
28.52	61.666667
28.54	63.333333
28.56	76.666667
28.58	83.333333
28.6	70
28.62	95
28.64	71.666667
28.66	88.333333
28.68	56.666667
28.7	75
28.72	83.333333
28.74	61.666667
28.76	71.666667
28.78	66.666667
28.8	68.333333
28.82	65
28.84	75
28.86	71.666667
28.88	70
28.9	53.333333
28.92	46.666667
28.94	60
28.96	73.333333
28.98	61.666667
29	46.666667
29.02	51.666667
29.04	63.333333
29.06	50
29.08	80
29.1	68.333333
29.12	51.666667
29.14	63.333333
29.16	65
29.18	53.333333
29.2	63.333333
29.22	61.666667
29.24	88.333333
29.26	93.333333
29.28	76.666667
29.3	66.666667
29.32	71.666667
29.34	78.333333
29.36	71.666667
29.38	83.333333
29.4	91.666667
29.42	73.333333
29.44	90
29.46	111.666667
29.48	115
29.5	105
29.52	146.666667
29.54	133.333333
29.56	181.666667
29.58	203.333333
29.6	245
29.62	271.666667
29.64	320
29.66	385
29.68	441.666667
29.7	580
29.72	723.333333
29.74	926.666667
29.76	1086.666667
29.78	1340
29.8	1625
29.82	2135
29.84	2608.333333
29.86	2826.666667
29.88	3528.333333
29.9	4011.666667
29.92	4421.666667
29.94	4740
29.96	5048.333333
29.98	4858.333333
30	5108.333333
30.02	4923.333333
30.04	4768.333333
30.06	4610
30.08	4233.333333
30.1	3788.333333
30.12	3400
30.14	3158.333333
30.16	2641.666667
30.18	2365
30.2	1951.666667
30.22	1668.333333
30.24	1141.666667
30.26	993.333333
30.28	783.333333
30.3	550
30.32	406.666667
30.34	291.666667
30.36	210
30.38	188.333333
30.4	153.333333
30.42	130
30.44	110
30.46	121.666667
30.48	93.333333
30.5	90
30.52	106.666667
30.54	95
30.56	85
30.58	90
30.6	88.333333
30.62	88.333333
30.64	75
30.66	71.666667
30.68	73.333333
30.7	63.333333
30.72	73.333333
30.74	40
30.76	78.333333
30.78	53.333333
30.8	73.333333
30.82	76.666667
30.84	65
30.86	65
30.88	53.333333
30.9	66.666667
30.92	43.333333
30.94	55
30.96	63.333333
30.98	73.333333
31	48.333333
31.02	53.333333
31.04	53.333333
31.06	46.666667
31.08	61.666667
31.1	63.333333
31.12	51.666667
31.14	60
31.16	53.333333
31.18	51.666667
31.2	58.333333
31.22	55
31.24	51.666667
31.26	45
31.28	45
31.3	55
31.32	66.666667
31.34	45
31.36	53.333333
31.38	55
31.4	73.333333
31.42	58.333333
31.44	58.333333
31.46	61.666667
31.48	45
31.5	65
31.52	58.333333
31.54	53.333333
31.56	61.666667
31.58	63.333333
31.6	43.333333
31.62	46.666667
31.64	60
31.66	50
31.68	53.333333
31.7	51.666667
31.72	53.333333
31.74	55
31.76	46.666667
31.78	55
31.8	48.333333
31.82	55
31.84	33.333333
31.86	55
31.88	63.333333
31.9	68.333333
31.92	41.666667
31.94	56.666667
31.96	63.333333
31.98	58.333333
32	51.666667
32.02	83.333333
32.04	50
32.06	48.333333
32.08	65
32.1	55
32.12	61.666667
32.14	75
32.16	53.333333
32.18	63.333333
32.2	58.333333
32.22	56.666667
32.24	50
32.26	58.333333
32.28	55
32.3	61.666667
32.32	63.333333
32.34	55
32.36	75
32.38	53.333333
32.4	58.333333
32.42	68.333333
32.44	53.333333
32.46	40
32.48	46.666667
32.5	55
32.52	38.333333
32.54	65
32.56	60
32.58	58.333333
32.6	45
32.62	50
32.64	55
32.66	51.666667
32.68	53.333333
32.7	51.666667
32.72	35
32.74	48.333333
32.76	48.333333
32.78	40
32.8	63.333333
32.82	53.333333
32.84	45
32.86	38.333333
32.88	58.333333
32.9	51.666667
32.92	43.333333
32.94	60
32.96	51.666667
32.98	68.333333
33	46.666667
33.02	45
33.04	66.666667
33.06	53.333333
33.08	50
33.1	70
33.12	58.333333
33.14	46.666667
33.16	45
33.18	41.666667
33.2	61.666667
33.22	51.666667
33.24	45
33.26	56.666667
33.28	41.666667
33.3	58.333333
33.32	45
33.34	50
33.36	56.666667
33.38	45
33.4	58.333333
33.42	45
33.44	33.333333
33.46	55
33.48	50
33.5	56.666667
33.52	60
33.54	60
33.56	65
33.58	50
33.6	46.666667
33.62	63.333333
33.64	63.333333
33.66	55
33.68	63.333333
33.7	60
33.72	46.666667
33.74	48.333333
33.76	50
33.78	53.333333
33.8	50
33.82	46.666667
33.84	53.333333
33.86	45
33.88	50
33.9	38.333333
33.92	55
33.94	55
33.96	70
33.98	56.666667
34	58.333333
34.02	50
34.04	61.666667
34.06	36.666667
34.08	55
34.1	46.666667
34.12	43.333333
34.14	58.333333
34.16	55
34.18	41.666667
34.2	56.666667
34.22	50
34.24	56.666667
34.26	53.333333
34.28	53.333333
34.3	51.666667
34.32	53.333333
34.34	51.666667
34.36	58.333333
34.38	41.666667
34.4	36.666667
34.42	30
34.44	36.666667
34.46	50
34.48	51.666667
34.5	45
34.52	41.666667
34.54	40
34.56	33.333333
34.58	45
34.6	40
34.62	48.333333
34.64	50
34.66	40
34.68	50
34.7	48.333333
34.72	33.333333
34.74	46.666667
34.76	45
34.78	46.666667
34.8	36.666667
34.82	51.666667
34.84	63.333333
34.86	43.333333
34.88	43.333333
34.9	41.666667
34.92	53.333333
34.94	53.333333
34.96	46.666667
34.98	45
35	61.666667
35.02	36.666667
35.04	40
35.06	36.666667
35.08	40
35.1	48.333333
35.12	45
35.14	40
35.16	46.666667
35.18	65
35.2	45
35.22	48.333333
35.24	38.333333
35.26	38.333333
35.28	38.333333
35.3	46.666667
35.32	31.666667
35.34	38.333333
35.36	38.333333
35.38	33.333333
35.4	35
35.42	41.666667
35.44	35
35.46	41.666667
35.48	38.333333
35.5	48.333333
35.52	56.666667
35.54	30
35.56	41.666667
35.58	51.666667
35.6	45
35.62	41.666667
35.64	36.666667
35.66	50
35.68	33.333333
35.7	43.333333
35.72	36.666667
35.74	36.666667
35.76	43.333333
35.78	48.333333
35.8	60
35.82	46.666667
35.84	45
35.86	36.666667
35.88	36.666667
35.9	58.333333
35.92	56.666667
35.94	46.666667
35.96	41.666667
35.98	41.666667
36	51.666667
36.02	43.333333
36.04	55
36.06	33.333333
36.08	40
36.1	40
36.12	48.333333
36.14	63.333333
36.16	45
36.18	41.666667
36.2	63.333333
36.22	43.333333
36.24	30
36.26	38.333333
36.28	48.333333
36.3	38.333333
36.32	41.666667
36.34	30
36.36	40
36.38	63.333333
36.4	46.666667
36.42	30
36.44	43.333333
36.46	33.333333
36.48	45
36.5	31.666667
36.52	45
36.54	38.333333
36.56	43.333333
36.58	43.333333
36.6	41.666667
36.62	58.333333
36.64	38.333333
36.66	48.333333
36.68	53.333333
36.7	45
36.72	33.333333
36.74	28.333333
36.76	41.666667
36.78	41.666667
36.8	46.666667
36.82	45
36.84	40
36.86	36.666667
36.88	28.333333
36.9	45
36.92	41.666667
36.94	53.333333
36.96	45
36.98	50
37	60
37.02	41.666667
37.04	45
37.06	50
37.08	26.666667
37.1	51.666667
37.12	41.666667
37.14	45
37.16	40
37.18	55
37.2	40
37.22	45
37.24	40
37.26	45
37.28	48.333333
37.3	28.333333
37.32	41.666667
37.34	41.666667
37.36	41.666667
37.38	36.666667
37.4	30
37.42	53.333333
37.44	38.333333
37.46	40
37.48	63.333333
37.5	45
37.52	51.666667
37.54	33.333333
37.56	53.333333
37.58	48.333333
37.6	48.333333
37.62	51.666667
37.64	70
37.66	48.333333
37.68	55
37.7	58.333333
37.72	63.333333
37.74	48.333333
37.76	61.666667
37.78	66.666667
37.8	58.333333
37.82	75
37.84	56.666667
37.86	96.666667
37.88	116.666667
37.9	121.666667
37.92	135
37.94	178.333333
37.96	245
37.98	250
38	385
38.02	456.666667
38.04	563.333333
38.06	713.333333
38.08	841.666667
38.1	978.333333
38.12	1195
38.14	1425
38.16	1510
38.18	1520
38.2	1693.333333
38.22	1710
38.24	1725
38.26	1705
38.28	1675
38.3	1543.333333
38.32	1643.333333
38.34	1430
38.36	1280
38.38	1131.666667
38.4	1088.333333
38.42	873.333333
38.44	763.333333
38.46	586.666667
38.48	486.666667
38.5	323.333333
38.52	300
38.54	258.333333
38.56	186.666667
38.58	156.666667
38.6	90
38.62	78.333333
38.64	78.333333
38.66	68.333333
38.68	66.666667
38.7	56.666667
38.72	50
38.74	73.333333
38.76	65
38.78	63.333333
38.8	53.333333
38.82	53.333333
38.84	41.666667
38.86	41.666667
38.88	58.333333
38.9	60
38.92	53.333333
38.94	38.333333
38.96	38.333333
38.98	46.666667
39	55
39.02	40
39.04	60
39.06	51.666667
39.08	38.333333
39.1	51.666667
39.12	56.666667
39.14	51.666667
39.16	38.333333
39.18	46.666667
39.2	46.666667
39.22	48.333333
39.24	58.333333
39.26	50
39.28	53.333333
39.3	26.666667
39.32	33.333333
39.34	55
39.36	41.666667
39.38	53.333333
39.4	38.333333
39.42	25
39.44	48.333333
39.46	53.333333
39.48	53.333333
39.5	38.333333
39.52	40
39.54	45
39.56	40
39.58	45
39.6	35
39.62	31.666667
39.64	36.666667
39.66	31.666667
39.68	38.333333
39.7	51.666667
39.72	31.666667
39.74	46.666667
39.76	30
39.78	58.333333
39.8	48.333333
39.82	46.666667
39.84	46.666667
39.86	45
39.88	41.666667
39.9	46.666667
39.92	36.666667
39.94	48.333333
39.96	28.333333
39.98	51.666667
40	58.333333
40.02	35
40.04	38.333333
40.06	41.666667
40.08	50
40.1	30
40.12	31.666667
40.14	38.333333
40.16	65
40.18	45
40.2	53.333333
40.22	36.666667
40.24	40
40.26	31.666667
40.28	58.333333
40.3	30
40.32	68.333333
40.34	60
40.36	70
40.38	73.333333
40.4	93.333333
40.42	110
40.44	111.666667
40.46	135
40.48	180
40.5	196.666667
40.52	235
40.54	293.333333
40.56	310
40.58	315
40.6	358.333333
40.62	370
40.64	421.666667
40.66	395
40.68	401.666667
40.7	420
40.72	405
40.74	373.333333
40.76	375
40.78	306.666667
40.8	241.666667
40.82	255
40.84	225
40.86	200
40.88	160
40.9	138.333333
40.92	120
40.94	100
40.96	103.333333
40.98	73.333333
41	76.666667
41.02	48.333333
41.04	48.333333
41.06	51.666667
41.08	48.333333
41.1	30
41.12	45
41.14	61.666667
41.16	50
41.18	60
41.2	56.666667
41.22	43.333333
41.24	43.333333
41.26	60
41.28	50
41.3	53.333333
41.32	43.333333
41.34	41.666667
41.36	46.666667
41.38	65
41.4	35
41.42	38.333333
41.44	38.333333
41.46	46.666667
41.48	26.666667
41.5	43.333333
41.52	40
41.54	50
41.56	41.666667
41.58	30
41.6	61.666667
41.62	43.333333
41.64	38.333333
41.66	38.333333
41.68	41.666667
41.7	36.666667
41.72	40
41.74	41.666667
41.76	51.666667
41.78	38.333333
41.8	53.333333
41.82	33.333333
41.84	41.666667
41.86	26.666667
41.88	36.666667
41.9	50
41.92	45
41.94	41.666667
41.96	40
41.98	38.333333
42	40
42.02	46.666667
42.04	41.666667
42.06	48.333333
42.08	53.333333
42.1	48.333333
42.12	41.666667
42.14	45
42.16	51.666667
42.18	45
42.2	45
42.22	55
42.24	68.333333
42.26	45
42.28	43.333333
42.3	36.666667
42.32	53.333333
42.34	51.666667
42.36	41.666667
42.38	43.333333
42.4	71.666667
42.42	38.333333
42.44	40
42.46	45
42.48	53.333333
42.5	36.666667
42.52	61.666667
42.54	38.333333
42.56	41.666667
42.58	43.333333
42.6	43.333333
42.62	43.333333
42.64	50
42.66	35
42.68	38.333333
42.7	43.333333
42.72	51.666667
42.74	46.666667
42.76	53.333333
42.78	43.333333
42.8	33.333333
42.82	55
42.84	21.666667
42.86	50
42.88	41.666667
42.9	35
42.92	26.666667
42.94	46.666667
42.96	48.333333
42.98	28.333333
43	43.333333
43.02	41.666667
43.04	45
43.06	38.333333
43.08	38.333333
43.1	35
43.12	63.333333
43.14	28.333333
43.16	33.333333
43.18	30
43.2	33.333333
43.22	30
43.24	46.666667
43.26	36.666667
43.28	40
43.3	45
43.32	36.666667
43.34	35
43.36	46.666667
43.38	33.333333
43.4	35
43.42	51.666667
43.44	41.666667
43.46	40
43.48	36.666667
43.5	51.666667
43.52	46.666667
43.54	40
43.56	50
43.58	51.666667
43.6	51.666667
43.62	46.666667
43.64	35
43.66	30
43.68	31.666667
43.7	46.666667
43.72	38.333333
43.74	45
43.76	36.666667
43.78	40
43.8	46.666667
43.82	38.333333
43.84	51.666667
43.86	48.333333
43.88	41.666667
43.9	40
43.92	43.333333
43.94	33.333333
43.96	38.333333
43.98	31.666667
44	46.666667
44.02	41.666667
44.04	50
44.06	40
44.08	36.666667
44.1	45
44.12	28.333333
44.14	51.666667
44.16	43.333333
44.18	40
44.2	48.333333
44.22	43.333333
44.24	45
44.26	48.333333
44.28	50
44.3	40
44.32	36.666667
44.34	28.333333
44.36	50
44.38	40
44.4	31.666667
44.42	48.333333
44.44	33.333333
44.46	51.666667
44.48	36.666667
44.5	43.333333
44.52	31.666667
44.54	45
44.56	48.333333
44.58	48.333333
44.6	28.333333
44.62	38.333333
44.64	45
44.66	48.333333
44.68	43.333333
44.7	41.666667
44.72	41.666667
44.74	41.666667
44.76	43.333333
44.78	43.333333
44.8	50
44.82	26.666667
44.84	56.666667
44.86	33.333333
44.88	48.333333
44.9	51.666667
44.92	51.666667
44.94	35
44.96	35
44.98	31.666667
45	35
45.02	46.666667
45.04	60
45.06	53.333333
45.08	53.333333
45.1	40
45.12	53.333333
45.14	46.666667
45.16	33.333333
45.18	51.666667
45.2	40
45.22	36.666667
45.24	40
45.26	53.333333
45.28	41.666667
45.3	60
45.32	60
45.34	38.333333
45.36	30
45.38	38.333333
45.4	28.333333
45.42	48.333333
45.44	35
45.46	51.666667
45.48	50
45.5	48.333333
45.52	40
45.54	33.333333
45.56	45
45.58	51.666667
45.6	45
45.62	51.666667
45.64	40
45.66	30
45.68	35
45.7	48.333333
45.72	43.333333
45.74	53.333333
45.76	36.666667
45.78	36.666667
45.8	48.333333
45.82	48.333333
45.84	53.333333
45.86	45
45.88	35
45.9	65
45.92	33.333333
45.94	43.333333
45.96	50
45.98	56.666667
46	40
46.02	41.666667
46.04	43.333333
46.06	48.333333
46.08	40
46.1	45
46.12	46.666667
46.14	28.333333
46.16	48.333333
46.18	50
46.2	41.666667
46.22	56.666667
46.24	45
46.26	36.666667
46.28	58.333333
46.3	43.333333
46.32	61.666667
46.34	38.333333
46.36	31.666667
46.38	43.333333
46.4	31.666667
46.42	45
46.44	55
46.46	40
46.48	43.333333
46.5	55
46.52	45
46.54	46.666667
46.56	43.333333
46.58	46.666667
46.6	56.666667
46.62	40
46.64	43.333333
46.66	51.666667
46.68	46.666667
46.7	53.333333
46.72	66.666667
46.74	43.333333
46.76	53.333333
46.78	43.333333
46.8	70
46.82	41.666667
46.84	50
46.86	73.333333
46.88	53.333333
46.9	80
46.92	88.333333
46.94	90
46.96	115
46.98	146.666667
47	170
47.02	231.666667
47.04	261.666667
47.06	310
47.08	443.333333
47.1	521.666667
47.12	673.333333
47.14	823.333333
47.16	935
47.18	1068.333333
47.2	1225
47.22	1320
47.24	1440
47.26	1483.333333
47.28	1576.666667
47.3	1493.333333
47.32	1616.666667
47.34	1678.333333
47.36	1506.666667
47.38	1373.333333
47.4	1351.666667
47.42	1243.333333
47.44	1148.333333
47.46	995
47.48	950
47.5	778.333333
47.52	601.666667
47.54	531.666667
47.56	391.666667
47.58	336.666667
47.6	268.333333
47.62	240
47.64	195
47.66	125
47.68	126.666667
47.7	111.666667
47.72	86.666667
47.74	86.666667
47.76	76.666667
47.78	75
47.8	63.333333
47.82	51.666667
47.84	51.666667
47.86	55
47.88	58.333333
47.9	50
47.92	41.666667
47.94	50
47.96	48.333333
47.98	41.666667
48	48.333333
48.02	38.333333
48.04	43.333333
48.06	53.333333
48.08	45
48.1	40
48.12	53.333333
48.14	51.666667
48.16	41.666667
48.18	36.666667
48.2	43.333333
48.22	51.666667
48.24	46.666667
48.26	31.666667
48.28	35
48.3	38.333333
48.32	40
48.34	40
48.36	55
48.38	46.666667
48.4	56.666667
48.42	50
48.44	58.333333
48.46	53.333333
48.48	53.333333
48.5	41.666667
48.52	45
48.54	36.666667
48.56	46.666667
48.58	43.333333
48.6	43.333333
48.62	40
48.64	35
48.66	48.333333
48.68	71.666667
48.7	41.666667
48.72	40
48.74	33.333333
48.76	56.666667
48.78	31.666667
48.8	48.333333
48.82	48.333333
48.84	65
48.86	58.333333
48.88	63.333333
48.9	51.666667
48.92	63.333333
48.94	66.666667
48.96	65
48.98	75
49	65
49.02	100
49.04	115
49.06	123.333333
49.08	173.333333
49.1	206.666667
49.12	263.333333
49.14	350
49.16	395
49.18	490
49.2	625
49.22	713.333333
49.24	845
49.26	913.333333
49.28	1003.333333
49.3	1106.666667
49.32	1193.333333
49.34	1246.666667
49.36	1265
49.38	1316.666667
49.4	1336.666667
49.42	1231.666667
49.44	1201.666667
49.46	1096.666667
49.48	1091.666667
49.5	936.666667
49.52	755
49.54	686.666667
49.56	610
49.58	523.333333
49.6	483.333333
49.62	346.666667
49.64	258.333333
49.66	255
49.68	178.333333
49.7	138.333333
49.72	135
49.74	93.333333
49.76	80
49.78	101.666667
49.8	56.666667
49.82	65
49.84	55
49.86	71.666667
49.88	50
49.9	53.333333
49.92	48.333333
49.94	58.333333
49.96	53.333333
49.98	36.666667
50	50
50.02	56.666667
50.04	58.333333
50.06	33.333333
50.08	48.333333
50.1	65
50.12	43.333333
50.14	46.666667
50.16	45
50.18	58.333333
50.2	46.666667
50.22	48.333333
50.24	53.333333
50.26	43.333333
50.28	43.333333
50.3	38.333333
50.32	38.333333
50.34	41.666667
50.36	43.333333
50.38	46.666667
50.4	45
50.42	53.333333
50.44	36.666667
50.46	50
50.48	65
50.5	40
50.52	41.666667
50.54	23.333333
50.56	31.666667
50.58	43.333333
50.6	50
50.62	45
50.64	31.666667
50.66	26.666667
50.68	40
50.7	51.666667
50.72	43.333333
50.74	43.333333
50.76	35
50.78	41.666667
50.8	45
50.82	35
50.84	50
50.86	46.666667
50.88	53.333333
50.9	55
50.92	36.666667
50.94	45
50.96	56.666667
50.98	36.666667
51	56.666667
51.02	40
51.04	60
51.06	38.333333
51.08	35
51.1	35
51.12	50
51.14	48.333333
51.16	53.333333
51.18	40
51.2	38.333333
51.22	36.666667
51.24	33.333333
51.26	41.666667
51.28	46.666667
51.3	36.666667
51.32	33.333333
51.34	45
51.36	60
51.38	43.333333
51.4	33.333333
51.42	28.333333
51.44	36.666667
51.46	48.333333
51.48	43.333333
51.5	41.666667
51.52	36.666667
51.54	35
51.56	43.333333
51.58	36.666667
51.6	40
51.62	36.666667
51.64	40
51.66	53.333333
51.68	41.666667
51.7	41.666667
51.72	35
51.74	36.666667
51.76	38.333333
51.78	56.666667
51.8	56.666667
51.82	33.333333
51.84	35
51.86	61.666667
51.88	41.666667
51.9	40
51.92	41.666667
51.94	31.666667
51.96	46.666667
51.98	56.666667
52	40
52.02	41.666667
52.04	48.333333
52.06	46.666667
52.08	41.666667
52.1	33.333333
52.12	48.333333
52.14	53.333333
52.16	53.333333
52.18	38.333333
52.2	33.333333
52.22	41.666667
52.24	40
52.26	53.333333
52.28	40
52.3	31.666667
52.32	38.333333
52.34	36.666667
52.36	30
52.38	41.666667
52.4	61.666667
52.42	36.666667
52.44	53.333333
52.46	35
52.48	46.666667
52.5	45
52.52	40
52.54	48.333333
52.56	55
52.58	51.666667
52.6	45
52.62	36.666667
52.64	43.333333
52.66	48.333333
52.68	43.333333
52.7	56.666667
52.72	68.333333
52.74	60
52.76	50
52.78	46.666667
52.8	41.666667
52.82	46.666667
52.84	45
52.86	38.333333
52.88	38.333333
52.9	48.333333
52.92	43.333333
52.94	30
52.96	40
52.98	45
53	45
53.02	41.666667
53.04	40
53.06	43.333333
53.08	31.666667
53.1	43.333333
53.12	38.333333
53.14	48.333333
53.16	50
53.18	48.333333
53.2	50
53.22	43.333333
53.24	35
53.26	31.666667
53.28	38.333333
53.3	58.333333
53.32	65
53.34	21.666667
53.36	46.666667
53.38	36.666667
53.4	40
53.42	38.333333
53.44	50
53.46	38.333333
53.48	58.333333
53.5	45
53.52	56.666667
53.54	41.666667
53.56	46.666667
53.58	58.333333
53.6	46.666667
53.62	33.333333
53.64	61.666667
53.66	40
53.68	53.333333
53.7	36.666667
53.72	38.333333
53.74	45
53.76	38.333333
53.78	48.333333
53.8	40
53.82	45
53.84	43.333333
53.86	38.333333
53.88	48.333333
53.9	43.333333
53.92	38.333333
53.94	45
53.96	65
53.98	40
54	36.666667
54.02	26.666667
54.04	33.333333
54.06	33.333333
54.08	38.333333
54.1	41.666667
54.12	55
54.14	56.666667
54.16	41.666667
54.18	25
54.2	38.333333
54.22	55
54.24	46.666667
54.26	48.333333
54.28	40
54.3	41.666667
54.32	45
54.34	43.333333
54.36	38.333333
54.38	43.333333
54.4	46.666667
54.42	36.666667
54.44	45
54.46	40
54.48	55
54.5	51.666667
54.52	38.333333
54.54	38.333333
54.56	48.333333
54.58	46.666667
54.6	45
54.62	45
54.64	46.666667
54.66	51.666667
54.68	56.666667
54.7	55
54.72	58.333333
54.74	41.666667
54.76	53.333333
54.78	68.333333
54.8	85
54.82	58.333333
54.84	91.666667
54.86	96.666667
54.88	136.666667
54.9	130
54.92	156.666667
54.94	211.666667
54.96	266.666667
54.98	325
55	456.666667
55.02	548.333333
55.04	590
55.06	705
55.08	818.333333
55.1	848.333333
55.12	943.333333
55.14	1110
55.16	1121.666667
55.18	1146.666667
55.2	1096.666667
55.22	1058.333333
55.24	1005
55.26	1048.333333
55.28	1041.666667
55.3	1083.333333
55.32	966.666667
55.34	843.333333
55.36	791.666667
55.38	665
55.4	561.666667
55.42	526.666667
55.44	398.333333
55.46	375
55.48	286.666667
55.5	236.666667
55.52	230
55.54	185
55.56	158.333333
55.58	123.333333
55.6	86.666667
55.62	63.333333
55.64	53.333333
55.66	85
55.68	48.333333
55.7	55
55.72	75
55.74	61.666667
55.76	61.666667
55.78	71.666667
55.8	55
55.82	36.666667
55.84	50
55.86	45
55.88	46.666667
55.9	58.333333
55.92	51.666667
55.94	45
55.96	48.333333
55.98	50
56	41.666667
56.02	53.333333
56.04	48.333333
56.06	36.666667
56.08	45
56.1	55
56.12	48.333333
56.14	68.333333
56.16	45
56.18	43.333333
56.2	30
56.22	45
56.24	60
56.26	46.666667
56.28	50
56.3	41.666667
56.32	38.333333
56.34	41.666667
56.36	51.666667
56.38	46.666667
56.4	53.333333
56.42	51.666667
56.44	58.333333
56.46	61.666667
56.48	61.666667
56.5	58.333333
56.52	46.666667
56.54	48.333333
56.56	50
56.58	66.666667
56.6	83.333333
56.62	76.666667
56.64	86.666667
56.66	78.333333
56.68	91.666667
56.7	85
56.72	90
56.74	123.333333
56.76	145
56.78	143.333333
56.8	201.666667
56.82	230
56.84	330
56.86	395
56.88	438.333333
56.9	493.333333
56.92	608.333333
56.94	653.333333
56.96	736.666667
56.98	780
57	791.666667
57.02	848.333333
57.04	778.333333
57.06	815
57.08	803.333333
57.1	790
57.12	788.333333
57.14	720
57.16	663.333333
57.18	546.666667
57.2	506.666667
57.22	490
57.24	398.333333
57.26	363.333333
57.28	345
57.3	266.666667
57.32	250
57.34	186.666667
57.36	168.333333
57.38	135
57.4	125
57.42	95
57.44	98.333333
57.46	80
57.48	70
57.5	81.666667
57.52	56.666667
57.54	50
57.56	36.666667
57.58	31.666667
57.6	53.333333
57.62	53.333333
57.64	40
57.66	51.666667
57.68	41.666667
57.7	46.666667
57.72	38.333333
57.74	51.666667
57.76	48.333333
57.78	41.666667
57.8	41.666667
57.82	40
57.84	40
57.86	55
57.88	50
57.9	31.666667
57.92	41.666667
57.94	43.333333
57.96	45
57.98	50
58	46.666667
58.02	40
58.04	56.666667
58.06	61.666667
58.08	50
58.1	55
58.12	38.333333
58.14	41.666667
58.16	35
58.18	36.666667
58.2	50
58.22	35
58.24	31.666667
58.26	35
58.28	41.666667
58.3	40
58.32	40
58.34	50
58.36	60
58.38	46.666667
58.4	50
58.42	40
58.44	38.333333
58.46	51.666667
58.48	53.333333
58.5	50
58.52	38.333333
58.54	36.666667
58.56	36.666667
58.58	31.666667
58.6	43.333333
58.62	33.333333
58.64	45
58.66	41.666667
58.68	28.333333
58.7	43.333333
58.72	36.666667
58.74	43.333333
58.76	43.333333
58.78	40
58.8	46.666667
58.82	30
58.84	40
58.86	35
58.88	40
58.9	41.666667
58.92	36.666667
58.94	51.666667
58.96	48.333333
58.98	33.333333
59	36.666667
59.02	35
59.04	30
59.06	36.666667
59.08	43.333333
59.1	45
59.12	48.333333
59.14	28.333333
59.16	35
59.18	33.333333
59.2	41.666667
59.22	48.333333
59.24	33.333333
59.26	45
59.28	36.666667
59.3	33.333333
59.32	28.333333
59.34	45
59.36	28.333333
59.38	48.333333
59.4	48.333333
59.42	45
59.44	46.666667
59.46	48.333333
59.48	48.333333
59.5	40
59.52	31.666667
59.54	41.666667
59.56	36.666667
59.58	50
59.6	38.333333
59.62	55
59.64	43.333333
59.66	51.666667
59.68	41.666667
59.7	35
59.72	43.333333
59.74	38.333333
59.76	21.666667
59.78	38.333333
59.8	38.333333
59.82	40
59.84	26.666667
59.86	48.333333
59.88	43.333333
59.9	36.666667
59.92	40
59.94	41.666667
59.96	38.333333
59.98	43.333333
60	46.666667
60.02	45
60.04	41.666667
60.06	48.333333
60.08	36.666667
60.1	41.666667
60.12	51.666667
60.14	46.666667
60.16	40
60.18	45
60.2	45
60.22	31.666667
60.24	38.333333
60.26	41.666667
60.28	36.666667
60.3	43.333333
60.32	61.666667
60.34	40
60.36	36.666667
60.38	45
60.4	45
60.42	38.333333
60.44	35
60.46	40
60.48	41.666667
60.5	36.666667
60.52	38.333333
60.54	20
60.56	40
60.58	43.333333
60.6	43.333333
60.62	45
60.64	36.666667
60.66	41.666667
60.68	51.666667
60.7	31.666667
60.72	36.666667
60.74	58.333333
60.76	30
60.78	40
60.8	51.666667
60.82	26.666667
60.84	41.666667
60.86	46.666667
60.88	48.333333
60.9	31.666667
60.92	51.666667
60.94	46.666667
60.96	46.666667
60.98	38.333333
61	46.666667
61.02	33.333333
61.04	40
61.06	43.333333
61.08	48.333333
61.1	30
61.12	48.333333
61.14	45
61.16	41.666667
61.18	56.666667
61.2	40
61.22	40
61.24	43.333333
61.26	31.666667
61.28	30
61.3	53.333333
61.32	40
61.34	48.333333
61.36	45
61.38	31.666667
61.4	43.333333
61.42	50
61.44	30
61.46	46.666667
61.48	41.666667
61.5	51.666667
61.52	31.666667
61.54	61.666667
61.56	53.333333
61.58	28.333333
61.6	40
61.62	45
61.64	36.666667
61.66	40
61.68	40
61.7	55
61.72	45
61.74	46.666667
61.76	35
61.78	40
61.8	41.666667
61.82	63.333333
61.84	41.666667
61.86	35
61.88	41.666667
61.9	48.333333
61.92	45
61.94	56.666667
61.96	71.666667
61.98	65
62	71.666667
62.02	56.666667
62.04	61.666667
62.06	80
62.08	78.333333
62.1	116.666667
62.12	135
62.14	141.666667
62.16	171.666667
62.18	256.666667
62.2	245
62.22	323.333333
62.24	395
62.26	471.666667
62.28	548.333333
62.3	626.666667
62.32	671.666667
62.34	651.666667
62.36	733.333333
62.38	693.333333
62.4	715
62.42	653.333333
62.44	740
62.46	733.333333
62.48	753.333333
62.5	640
62.52	563.333333
62.54	505
62.56	538.333333
62.58	425
62.6	365
62.62	353.333333
62.64	290
62.66	246.666667
62.68	248.333333
62.7	191.666667
62.72	161.666667
62.74	166.666667
62.76	125
62.78	113.333333
62.8	73.333333
62.82	90
62.84	51.666667
62.86	50
62.88	60
62.9	51.666667
62.92	55
62.94	68.333333
62.96	45
62.98	40
63	43.333333
63.02	28.333333
63.04	68.333333
63.06	43.333333
63.08	55
63.1	50
63.12	41.666667
63.14	45
63.16	53.333333
63.18	53.333333
63.2	55
63.22	56.666667
63.24	40
63.26	38.333333
63.28	35
63.3	41.666667
63.32	36.666667
63.34	43.333333
63.36	45
63.38	38.333333
63.4	36.666667
63.42	43.333333
63.44	56.666667
63.46	41.666667
63.48	58.333333
63.5	46.666667
63.52	35
63.54	45
63.56	36.666667
63.58	41.666667
63.6	48.333333
63.62	58.333333
63.64	46.666667
63.66	41.666667
63.68	43.333333
63.7	55
63.72	46.666667
63.74	75
63.76	60
63.78	65
63.8	76.666667
63.82	96.666667
63.84	90
63.86	135
63.88	128.333333
63.9	178.333333
63.92	191.666667
63.94	220
63.96	251.666667
63.98	265
64	290
64.02	361.666667
64.04	403.333333
64.06	456.666667
64.08	441.666667
64.1	430
64.12	438.333333
64.14	430
64.16	505
64.18	451.666667
64.2	486.666667
64.22	401.666667
64.24	391.666667
64.26	343.333333
64.28	293.333333
64.3	315
64.32	266.666667
64.34	243.333333
64.36	210
64.38	205
64.4	163.333333
64.42	148.333333
64.44	93.333333
64.46	105
64.48	76.666667
64.5	51.666667
64.52	70
64.54	50
64.56	65
64.58	53.333333
64.6	56.666667
64.62	41.666667
64.64	68.333333
64.66	46.666667
64.68	55
64.7	56.666667
64.72	41.666667
64.74	40
64.76	31.666667
64.78	31.666667
64.8	46.666667
64.82	28.333333
64.84	46.666667
64.86	23.333333
64.88	41.666667
64.9	45
64.92	33.333333
64.94	41.666667
64.96	35
64.98	35
65	35
65.02	51.666667
65.04	56.666667
65.06	48.333333
65.08	40
65.1	35
65.12	51.666667
65.14	35
65.16	40
65.18	38.333333
65.2	35
65.22	35
65.24	43.333333
65.26	31.666667
65.28	43.333333
65.3	33.333333
65.32	35
65.34	33.333333
65.36	35
65.38	51.666667
65.4	38.333333
65.42	43.333333
65.44	45
65.46	31.666667
65.48	46.666667
65.5	43.333333
65.52	21.666667
65.54	36.666667
65.56	35
65.58	31.666667
65.6	28.333333
65.62	60
65.64	48.333333
65.66	30
65.68	30
65.7	48.333333
65.72	36.666667
65.74	55
65.76	53.333333
65.78	40
65.8	36.666667
65.82	41.666667
65.84	31.666667
65.86	31.666667
65.88	40
65.9	53.333333
65.92	36.666667
65.94	36.666667
65.96	41.666667
65.98	31.666667
66	45
66.02	46.666667
66.04	43.333333
66.06	31.666667
66.08	26.666667
66.1	50
66.12	51.666667
66.14	36.666667
66.16	41.666667
66.18	28.333333
66.2	20
66.22	18.333333
66.24	31.666667
66.26	40
66.28	38.333333
66.3	41.666667
66.32	30
66.34	26.666667
66.36	40
66.38	31.666667
66.4	51.666667
66.42	36.666667
66.44	40
66.46	25
66.48	35
66.5	53.333333
66.52	53.333333
66.54	23.333333
66.56	31.666667
66.58	38.333333
66.6	36.666667
66.62	31.666667
66.64	41.666667
66.66	28.333333
66.68	30
66.7	31.666667
66.72	40
66.74	46.666667
66.76	33.333333
66.78	38.333333
66.8	30
66.82	40
66.84	36.666667
66.86	33.333333
66.88	48.333333
66.9	25
66.92	35
66.94	48.333333
66.96	46.666667
66.98	48.333333
67	53.333333
67.02	40
67.04	43.333333
67.06	33.333333
67.08	30
67.1	33.333333
67.12	45
67.14	21.666667
67.16	33.333333
67.18	33.333333
67.2	28.333333
67.22	41.666667
67.24	31.666667
67.26	63.333333
67.28	43.333333
67.3	46.666667
67.32	36.666667
67.34	30
67.36	36.666667
67.38	30
67.4	36.666667
67.42	46.666667
67.44	31.666667
67.46	33.333333
67.48	35
67.5	40
67.52	35
67.54	53.333333
67.56	26.666667
67.58	36.666667
67.6	25
67.62	55
67.64	41.666667
67.66	43.333333
67.68	33.333333
67.7	35
67.72	40
67.74	30
67.76	26.666667
67.78	40
67.8	40
67.82	18.333333
67.84	36.666667
67.86	28.333333
67.88	38.333333
67.9	45
67.92	43.333333
67.94	43.333333
67.96	38.333333
67.98	40
68	35
68.02	43.333333
68.04	38.333333
68.06	36.666667
68.08	26.666667
68.1	35
68.12	30
68.14	38.333333
68.16	21.666667
68.18	30
68.2	33.333333
68.22	56.666667
68.24	50
68.26	45
68.28	28.333333
68.3	31.666667
68.32	38.333333
68.34	45
68.36	45
68.38	51.666667
68.4	41.666667
68.42	30
68.44	60
68.46	38.333333
68.48	46.666667
68.5	36.666667
68.52	33.333333
68.54	33.333333
68.56	55
68.58	30
68.6	43.333333
68.62	30
68.64	51.666667
68.66	35
68.68	23.333333
68.7	41.666667
68.72	31.666667
68.74	26.666667
68.76	58.333333
68.78	31.666667
68.8	53.333333
68.82	40
68.84	40
68.86	45
68.88	30
68.9	33.333333
68.92	43.333333
68.94	43.333333
68.96	35
68.98	38.333333
69	33.333333
69.02	30
69.04	46.666667
69.06	31.666667
69.08	35
69.1	30
69.12	43.333333
69.14	45
69.16	41.666667
69.18	25
69.2	38.333333
69.22	33.333333
69.24	30
69.26	46.666667
69.28	45
69.3	41.666667
69.32	45
69.34	36.666667
69.36	51.666667
69.38	31.666667
69.4	28.333333
69.42	21.666667
69.44	31.666667
69.46	46.666667
69.48	28.333333
69.5	46.666667
69.52	41.666667
69.54	40
69.56	46.666667
69.58	43.333333
69.6	33.333333
69.62	28.333333
69.64	50
69.66	26.666667
69.68	45
69.7	53.333333
69.72	48.333333
69.74	46.666667
69.76	45
69.78	43.333333
69.8	51.666667
69.82	38.333333
69.84	51.666667
69.86	28.333333
69.88	38.333333
69.9	56.666667
69.92	35
69.94	38.333333
69.96	41.666667
69.98	45
70	43.333333
70.02	31.666667
70.04	46.666667
70.06	41.666667
70.08	60
70.1	33.333333
70.12	56.666667
70.14	40
70.16	56.666667
70.18	50
70.2	53.333333
70.22	50
70.24	50
70.26	55
70.28	55
70.3	48.333333
70.32	68.333333
70.34	48.333333
70.36	40
70.38	38.333333
70.4	66.666667
70.42	66.666667
70.44	53.333333
70.46	60
70.48	83.333333
70.5	100
70.52	103.333333
70.54	135
70.56	150
70.58	198.333333
70.6	245
70.62	255
70.64	295
70.66	245
70.68	310
70.7	328.333333
70.72	363.333333
70.74	361.666667
70.76	400
70.78	373.333333
70.8	431.666667
70.82	445
70.84	393.333333
70.86	331.666667
70.88	343.333333
70.9	338.333333
70.92	331.666667
70.94	326.666667
70.96	296.666667
70.98	258.333333
71	210
71.02	223.333333
71.04	206.666667
71.06	191.666667
71.08	140
71.1	150
71.12	111.666667
71.14	113.333333
71.16	123.333333
71.18	68.333333
71.2	71.666667
71.22	58.333333
71.24	46.666667
71.26	51.666667
71.28	36.666667
71.3	46.666667
71.32	46.666667
71.34	46.666667
71.36	51.666667
71.38	41.666667
71.4	26.666667
71.42	26.666667
71.44	31.666667
71.46	43.333333
71.48	58.333333
71.5	36.666667
71.52	51.666667
71.54	35
71.56	43.333333
71.58	60
71.6	41.666667
71.62	31.666667
71.64	30
71.66	28.333333
71.68	30
71.7	43.333333
71.72	50
71.74	41.666667
71.76	48.333333
71.78	30
71.8	23.333333
71.82	38.333333
71.84	36.666667
71.86	35
71.88	28.333333
71.9	51.666667
71.92	33.333333
71.94	48.333333
71.96	31.666667
71.98	36.666667
72	33.333333
72.02	28.333333
72.04	41.666667
72.06	43.333333
72.08	41.666667
72.1	45
72.12	41.666667
72.14	46.666667
72.16	46.666667
72.18	43.333333
72.2	35
72.22	35
72.24	38.333333
72.26	33.333333
72.28	26.666667
72.3	33.333333
72.32	38.333333
72.34	31.666667
72.36	40
72.38	38.333333
72.4	45
72.42	46.666667
72.44	43.333333
72.46	63.333333
72.48	43.333333
72.5	50
72.52	43.333333
72.54	35
72.56	28.333333
72.58	40
72.6	36.666667
72.62	38.333333
72.64	45
72.66	38.333333
72.68	36.666667
72.7	33.333333
72.72	35
72.74	53.333333
72.76	46.666667
72.78	33.333333
72.8	31.666667
72.82	41.666667
72.84	30
72.86	48.333333
72.88	43.333333
72.9	35
72.92	45
72.94	36.666667
72.96	41.666667
72.98	51.666667
73	38.333333
73.02	46.666667
73.04	36.666667
73.06	40
73.08	33.333333
73.1	48.333333
73.12	23.333333
73.14	33.333333
73.16	31.666667
73.18	25
73.2	38.333333
73.22	50
73.24	41.666667
73.26	40
73.28	40
73.3	43.333333
73.32	38.333333
73.34	40
73.36	36.666667
73.38	51.666667
73.4	33.333333
73.42	48.333333
73.44	25
73.46	43.333333
73.48	30
73.5	48.333333
73.52	33.333333
73.54	40
73.56	48.333333
73.58	41.666667
73.6	40
73.62	31.666667
73.64	40
73.66	50
73.68	43.333333
73.7	41.666667
73.72	33.333333
73.74	30
73.76	50
73.78	46.666667
73.8	53.333333
73.82	40
73.84	33.333333
73.86	46.666667
73.88	38.333333
73.9	26.666667
73.92	56.666667
73.94	45
73.96	46.666667
73.98	38.333333
74	33.333333
74.02	38.333333
74.04	48.333333
74.06	33.333333
74.08	28.333333
74.1	45
74.12	46.666667
74.14	45
74.16	35
74.18	38.333333
74.2	35
74.22	33.333333
74.24	35
74.26	33.333333
74.28	33.333333
74.3	33.333333
74.32	41.666667
74.34	43.333333
74.36	66.666667
74.38	56.666667
74.4	23.333333
74.42	43.333333
74.44	40
74.46	46.666667
74.48	40
74.5	35
74.52	38.333333
74.54	60
74.56	46.666667
74.58	36.666667
74.6	41.666667
74.62	33.333333
74.64	31.666667
74.66	50
74.68	33.333333
74.7	41.666667
74.72	43.333333
74.74	40
74.76	40
74.78	51.666667
74.8	31.666667
74.82	36.666667
74.84	36.666667
74.86	40
74.88	55
74.9	46.666667
74.92	45
74.94	38.333333
74.96	31.666667
74.98	36.666667
75	50
75.02	41.666667
75.04	45
75.06	38.333333
75.08	63.333333
75.1	46.666667
75.12	56.666667
75.14	51.666667
75.16	41.666667
75.18	35
75.2	61.666667
75.22	61.666667
75.24	60
75.26	55
75.28	75
75.3	73.333333
75.32	101.666667
75.34	86.666667
75.36	131.666667
75.38	140
75.4	158.333333
75.42	205
75.44	190
75.46	263.333333
75.48	281.666667
75.5	355
75.52	386.666667
75.54	353.333333
75.56	408.333333
75.58	355
75.6	365
75.62	356.666667
75.64	366.666667
75.66	368.333333
75.68	368.333333
75.7	333.333333
75.72	305
75.74	278.333333
75.76	278.333333
75.78	285
75.8	273.333333
75.82	216.666667
75.84	205
75.86	178.333333
75.88	173.333333
75.9	165
75.92	153.333333
75.94	123.333333
75.96	110
75.98	121.666667
76	93.333333
76.02	86.666667
76.04	53.333333
76.06	50
76.08	70
76.1	50
76.12	46.666667
76.14	50
76.16	60
76.18	51.666667
76.2	50
76.22	66.666667
76.24	48.333333
76.26	50
76.28	53.333333
76.3	66.666667
76.32	40
76.34	63.333333
76.36	53.333333
76.38	55
76.4	40
76.42	50
76.44	45
76.46	53.333333
76.48	58.333333
76.5	28.333333
76.52	46.666667
76.54	40
76.56	46.666667
76.58	43.333333
76.6	53.333333
76.62	61.666667
76.64	45
76.66	56.666667
76.68	60
76.7	61.666667
76.72	81.666667
76.74	63.333333
76.76	83.333333
76.78	76.666667
76.8	78.333333
76.82	86.666667
76.84	103.333333
76.86	156.666667
76.88	126.666667
76.9	173.333333
76.92	230
76.94	238.333333
76.96	313.333333
76.98	346.666667
77	471.666667
77.02	496.666667
77.04	526.666667
77.06	626.666667
77.08	735
77.1	708.333333
77.12	745
77.14	740
77.16	816.666667
77.18	866.666667
77.2	798.333333
77.22	843.333333
77.24	751.666667
77.26	768.333333
77.28	760
77.3	770
77.32	738.333333
77.34	615
77.36	596.666667
77.38	548.333333
77.4	545
77.42	435
77.44	383.333333
77.46	368.333333
77.48	365
77.5	265
77.52	268.333333
77.54	236.666667
77.56	201.666667
77.58	193.333333
77.6	156.666667
77.62	128.333333
77.64	86.666667
77.66	85
77.68	76.666667
77.7	66.666667
77.72	48.333333
77.74	80
77.76	56.666667
77.78	53.333333
77.8	71.666667
77.82	53.333333
77.84	45
77.86	43.333333
77.88	35
77.9	51.666667
77.92	50
77.94	55
77.96	43.333333
77.98	50
78	45
78.02	46.666667
78.04	48.333333
78.06	40
78.08	51.666667
78.1	60
78.12	56.666667
78.14	40
78.16	58.333333
78.18	33.333333
78.2	45
78.22	50
78.24	55
78.26	38.333333
78.28	58.333333
78.3	55
78.32	41.666667
78.34	50
78.36	50
78.38	28.333333
78.4	71.666667
78.42	38.333333
78.44	41.666667
78.46	26.666667
78.48	46.666667
78.5	53.333333
78.52	33.333333
78.54	48.333333
78.56	45
78.58	41.666667
78.6	38.333333
78.62	36.666667
78.64	38.333333
78.66	46.666667
78.68	31.666667
78.7	35
78.72	41.666667
78.74	46.666667
78.76	51.666667
78.78	36.666667
78.8	45
78.82	26.666667
78.84	48.333333
78.86	41.666667
78.88	48.333333
78.9	33.333333
78.92	55
78.94	33.333333
78.96	46.666667
78.98	38.333333
79	35
79.02	36.666667
79.04	40
79.06	40
79.08	40
79.1	41.666667
79.12	40
79.14	65
79.16	60
79.18	38.333333
79.2	41.666667
79.22	41.666667
79.24	36.666667
79.26	40
79.28	50
79.3	36.666667
79.32	26.666667
79.34	31.666667
79.36	48.333333
79.38	51.666667
79.4	46.666667
79.42	31.666667
79.44	43.333333
79.46	33.333333
79.48	51.666667
79.5	50
79.52	40
79.54	46.666667
79.56	50
79.58	73.333333
79.6	36.666667
79.62	53.333333
79.64	48.333333
79.66	56.666667
79.68	48.333333
79.7	45
79.72	36.666667
79.74	48.333333
79.76	46.666667
79.78	45
79.8	65
79.82	36.666667
79.84	33.333333
79.86	35
79.88	40
79.9	35
79.92	45
79.94	55
79.96	31.666667
79.98	38.333333
80	51.666667
80.02	26.666667
80.04	38.333333
80.06	33.333333
80.08	26.666667
80.1	36.666667
80.12	41.666667
80.14	48.333333
80.16	51.666667
80.18	46.666667
80.2	36.666667
80.22	46.666667
80.24	23.333333
80.26	40
80.28	41.666667
80.3	53.333333
80.32	48.333333
80.34	43.333333
80.36	43.333333
80.38	36.666667
80.4	33.333333
80.42	46.666667
80.44	43.333333
80.46	48.333333
80.48	45
80.5	43.333333
80.52	45
80.54	40
80.56	33.333333
80.58	33.333333
80.6	50
80.62	53.333333
80.64	50
80.66	41.666667
80.68	31.666667
80.7	35
80.72	41.666667
80.74	45
80.76	48.333333
80.78	46.666667
80.8	46.666667
80.82	33.333333
80.84	45
80.86	60
80.88	43.333333
80.9	48.333333
80.92	40
80.94	51.666667
80.96	36.666667
80.98	51.666667
81	35
81.02	35
81.04	36.666667
81.06	46.666667
81.08	41.666667
81.1	33.333333
81.12	40
81.14	51.666667
81.16	48.333333
81.18	61.666667
81.2	46.666667
81.22	43.333333
81.24	60
81.26	48.333333
81.28	51.666667
81.3	63.333333
81.32	50
81.34	73.333333
81.36	43.333333
81.38	56.666667
81.4	50
81.42	61.666667
81.44	68.333333
81.46	50
81.48	40
81.5	48.333333
81.52	61.666667
81.54	63.333333
81.56	83.333333
81.58	98.333333
81.6	146.666667
81.62	121.666667
81.64	165
81.66	208.333333
81.68	265
81.7	273.333333
81.72	320
81.74	370
81.76	416.666667
81.78	380
81.8	440
81.82	431.666667
81.84	453.333333
81.86	495
81.88	458.333333
81.9	451.666667
81.92	496.666667
81.94	451.666667
81.96	438.333333
81.98	386.666667
82	396.666667
82.02	403.333333
82.04	363.333333
82.06	338.333333
82.08	271.666667
82.1	311.666667
82.12	223.333333
82.14	250
82.16	208.333333
82.18	191.666667
82.2	186.666667
82.22	178.333333
82.24	116.666667
82.26	126.666667
82.28	115
82.3	115
82.32	75
82.34	73.333333
82.36	80
82.38	55
82.4	56.666667
82.42	71.666667
82.44	45
82.46	46.666667
82.48	45
82.5	50
82.52	51.666667
82.54	46.666667
82.56	33.333333
82.58	66.666667
82.6	51.666667
82.62	60
82.64	61.666667
82.66	33.333333
82.68	53.333333
82.7	35
82.72	53.333333
82.74	50
82.76	30
82.78	45
82.8	30
82.82	40
82.84	36.666667
82.86	46.666667
82.88	41.666667
82.9	43.333333
82.92	43.333333
82.94	36.666667
82.96	38.333333
82.98	40
83	45
83.02	38.333333
83.04	48.333333
83.06	46.666667
83.08	53.333333
83.1	43.333333
83.12	33.333333
83.14	38.333333
83.16	43.333333
83.18	30
83.2	33.333333
83.22	40
83.24	45
83.26	43.333333
83.28	48.333333
83.3	50
83.32	45
83.34	40
83.36	36.666667
83.38	38.333333
83.4	35
83.42	43.333333
83.44	33.333333
83.46	31.666667
83.48	38.333333
83.5	45
83.52	36.666667
83.54	45
83.56	58.333333
83.58	33.333333
83.6	50
83.62	53.333333
83.64	38.333333
83.66	45
83.68	43.333333
83.7	53.333333
83.72	30
83.74	26.666667
83.76	51.666667
83.78	41.666667
83.8	31.666667
83.82	33.333333
83.84	31.666667
83.86	43.333333
83.88	41.666667
83.9	45
83.92	46.666667
83.94	45
83.96	50
83.98	55
84	48.333333
84.02	51.666667
84.04	40
84.06	43.333333
84.08	58.333333
84.1	51.666667
84.12	46.666667
84.14	40
84.16	35
84.18	50
84.2	38.333333
84.22	31.666667
84.24	51.666667
84.26	41.666667
84.28	46.666667
84.3	56.666667
84.32	46.666667
84.34	33.333333
84.36	31.666667
84.38	56.666667
84.4	43.333333
84.42	28.333333
84.44	35
84.46	41.666667
84.48	50
84.5	31.666667
84.52	43.333333
84.54	40
84.56	43.333333
84.58	33.333333
84.6	36.666667
84.62	48.333333
84.64	33.333333
84.66	26.666667
84.68	50
84.7	40
84.72	43.333333
84.74	33.333333
84.76	48.333333
84.78	50
84.8	41.666667
84.82	55
84.84	33.333333
84.86	28.333333
84.88	38.333333
84.9	45
84.92	35
84.94	41.666667
84.96	45
84.98	46.666667
85	38.333333
85.02	41.666667
85.04	33.333333
85.06	43.333333
85.08	43.333333
85.1	36.666667
85.12	43.333333
85.14	35
85.16	36.666667
85.18	35
85.2	46.666667
85.22	35
85.24	46.666667
85.26	38.333333
85.28	41.666667
85.3	46.666667
85.32	40
85.34	43.333333
85.36	45
85.38	46.666667
85.4	36.666667
85.42	48.333333
85.44	38.333333
85.46	41.666667
85.48	43.333333
85.5	41.666667
85.52	40
85.54	45
85.56	33.333333
85.58	31.666667
85.6	36.666667
85.62	40
85.64	38.333333
85.66	53.333333
85.68	45
85.7	23.333333
85.72	36.666667
85.74	38.333333
85.76	40
85.78	46.666667
85.8	41.666667
85.82	35
85.84	35
85.86	45
85.88	23.333333
85.9	33.333333
85.92	43.333333
85.94	41.666667
85.96	46.666667
85.98	23.333333
86	31.666667
86.02	35
86.04	45
86.06	35
86.08	50
86.1	41.666667
86.12	46.666667
86.14	35
86.16	30
86.18	41.666667
86.2	53.333333
86.22	45
86.24	33.333333
86.26	46.666667
86.28	61.666667
86.3	45
86.32	46.666667
86.34	30
86.36	40
86.38	55
86.4	36.666667
86.42	41.666667
86.44	45
86.46	35
86.48	45
86.5	31.666667
86.52	40
86.54	28.333333
86.56	53.333333
86.58	26.666667
86.6	45
86.62	33.333333
86.64	35
86.66	48.333333
86.68	40
86.7	36.666667
86.72	38.333333
86.74	43.333333
86.76	61.666667
86.78	51.666667
86.8	33.333333
86.82	48.333333
86.84	28.333333
86.86	38.333333
86.88	33.333333
86.9	38.333333
86.92	40
86.94	43.333333
86.96	35
86.98	45
87	56.666667
87.02	43.333333
87.04	53.333333
87.06	43.333333
87.08	30
87.1	41.666667
87.12	60
87.14	43.333333
87.16	60
87.18	45
87.2	50
87.22	43.333333
87.24	33.333333
87.26	40
87.28	43.333333
87.3	45
87.32	48.333333
87.34	55
87.36	58.333333
87.38	50
87.4	45
87.42	56.666667
87.44	45
87.46	45
87.48	38.333333
87.5	28.333333
87.52	46.666667
87.54	53.333333
87.56	68.333333
87.58	65
87.6	51.666667
87.62	58.333333
87.64	46.666667
87.66	46.666667
87.68	53.333333
87.7	75
87.72	68.333333
87.74	61.666667
87.76	95
87.78	78.333333
87.8	106.666667
87.82	136.666667
87.84	158.333333
87.86	186.666667
87.88	188.333333
87.9	211.666667
87.92	176.666667
87.94	228.333333
87.96	235
87.98	245
88	258.333333
88.02	248.333333
88.04	231.666667
88.06	240
88.08	275
88.1	220
88.12	248.333333
88.14	250
88.16	211.666667
88.18	260
88.2	231.666667
88.22	190
88.24	166.666667
88.26	150
88.28	163.333333
88.3	151.666667
88.32	121.666667
88.34	110
88.36	120
88.38	140
88.4	91.666667
88.42	118.333333
88.44	95
88.46	111.666667
88.48	75
88.5	66.666667
88.52	58.333333
88.54	85
88.56	53.333333
88.58	56.666667
88.6	46.666667
88.62	46.666667
88.64	45
88.66	55
88.68	40
88.7	68.333333
88.72	50
88.74	35
88.76	56.666667
88.78	33.333333
88.8	58.333333
88.82	55
88.84	48.333333
88.86	45
88.88	58.333333
88.9	36.666667
88.92	48.333333
88.94	60
88.96	53.333333
88.98	48.333333
89	45
89.02	50
89.04	58.333333
89.06	55
89.08	61.666667
89.1	60
89.12	60
89.14	68.333333
89.16	55
89.18	61.666667
89.2	66.666667
89.22	101.666667
89.24	103.333333
89.26	70
89.28	95
89.3	100
89.32	170
89.34	205
89.36	230
89.38	255
89.4	270
89.42	311.666667
89.44	426.666667
89.46	365
89.48	345
89.5	426.666667
89.52	420
89.54	426.666667
89.56	455
89.58	473.333333
89.6	416.666667
89.62	488.333333
89.64	473.333333
89.66	415
89.68	456.666667
89.7	395
89.72	380
89.74	375
89.76	345
89.78	306.666667
89.8	311.666667
89.82	308.333333
89.84	283.333333
89.86	283.333333
89.88	253.333333
89.9	210
89.92	211.666667
89.94	228.333333
89.96	201.666667
89.98	195
90	175